"Time [ms]","InducedVoltage(PriCoil) [V]","InducedVoltage(SecCoil) [V]","Current(PriCoil) [mA]"
0,7.34554,4.22402,0
0.16666666666667,8.50971661756185,4.89608588574939,1.25581039058629
0.33333333333334,9.67389188480212,5.56814742003123,2.50666467128614
0.50000000000001,10.7287688921904,6.17722071841613,3.74762629171457
0.66666666666668,12.9542595158275,7.46211869975283,4.97379774329719
0.83333333333335,15.7194316682367,9.05863283849872,6.18033988749907
1.00000000000002,18.7839872699943,10.8280337296378,7.3624910536937
1.16666666666669,21.2218906628816,12.2357387916712,8.51558583130161
1.33333333333336,21.6650156998327,12.4919969320004,9.63507348203448
1.50000000000003,21.1048281022185,12.1691025185224,10.7165358995801
1.6666666666667,20.3083104214871,11.7098551145469,11.7557050458497
1.83333333333337,18.9507896212207,10.9268245153922,12.748479794974
2.00000000000004,17.5357235015864,10.1106111052758,13.690942118574
2.16666666666671,16.3082174945698,9.40271350808861,14.5793725484285
2.33333333333338,15.1771420240476,8.75052564244343,15.410264855516
2.50000000000005,14.0611904807615,8.10709716359776,16.1803398874992
2.66666666666672,12.8960181127358,7.43530547120426,16.8865585100405
2.83333333333339,11.622795129573,6.70117590615528,17.5261336008775
3.00000000000006,10.2448970711958,5.90665852722763,18.0965410493206
3.16666666666673,8.79520285659364,5.0707253993872,18.5955297177652
3.3333333333334,7.35951433404399,4.24289835544055,19.0211303259032
3.50000000000007,5.95193447514555,3.43132012006089,19.3716632225727
3.66666666666674,4.58172190057515,2.64133007885791,19.6457450145739
3.83333333333341,3.2451483466819,1.87077320932479,19.8422940262896
4.00000000000008,1.9353076891016,1.11565892318965,19.9605345685655
4.16666666666675,0.643050782665717,0.370701198554389,20
4.33333333333342,-0.643036630042769,-0.370693010897066,19.9605345685654
4.50000000000009,-1.93529322500355,-1.11565055924838,19.8422940262895
4.66666666666676,-3.24513328475823,-1.87076451114732,19.6457450145736
4.83333333333343,-4.58170602133905,-2.64132089683084,19.3716632225724
5.0000000000001,-5.95191759658662,-3.43131036926724,19.0211303259028
5.16666666666677,-7.35949644945622,-4.2428880200431,18.5955297177647
5.33333333333344,-8.79518442284278,-5.07071474469796,18.09654104932
5.50000000000011,-10.2448789053555,-5.90664802786746,17.5261336008769
5.66666666666678,-11.6227781285012,-6.70116608102381,16.8865585100399
5.83333333333345,-12.8960026495115,-7.43529653430465,16.1803398874984
6.00000000000012,-14.0611759462116,-8.10708876257028,15.4102648555152
6.16666666666679,-15.177127039043,-8.7505169813544,14.5793725484276
6.33333333333346,-16.3082002883992,-9.40270356443044,13.6909421185731
6.50000000000013,-17.5357037440679,-10.1105996888565,12.748479794973
6.6666666666668,-18.9507695372667,-10.9268129133794,11.7557050458486
6.83333333333347,-20.3082949028135,-11.7098461493495,10.7165358995791
7.00000000000014,-21.1048238355453,-12.1691000494113,9.63507348203339
7.16666666666681,-21.665030834097,-12.4920056758545,8.51558583130049
7.33333333333348,-21.2219280034103,-12.2357603584547,7.36249105369254
7.50000000000015,-18.7840409610603,-10.8280647378251,6.18033988749788
7.66666666666682,-15.7194805620152,-9.05866108407189,4.97379774329599
7.83333333333349,-12.9542934196965,-7.46213828941569,3.74762629171333
8.00000000000016,-10.728792205091,-6.17723419344953,2.50666467128489
8.16666666666683,-9.67390417068406,-5.56815452340472,1.25581039058506
8.3333333333335,-8.50974077044958,-4.89609987869512,-1.23211870978488e-12
8.50000000000017,-8.50973689688573,-4.89609762265792,-1.25581039058754
8.66666666666684,-9.67389262791349,-5.56814785038327,-2.50666467128737
8.83333333333351,-10.7287688920561,-6.17722071833868,-3.74762629171579
9.00000000000017,-12.9542595158372,-7.46211869975439,-4.97379774329831
9.16666666666684,-15.7194316682368,-9.05863283851053,-6.18033988750019
9.33333333333351,-18.7839872700558,-10.8280337296286,-7.36249105369479
9.50000000000018,-21.2218906628554,-12.2357387916713,-8.51558583130266
9.66666666666685,-21.665015699738,-12.4919969320008,-9.63507348203549
9.83333333333352,-21.1048281022502,-12.1691025185225,-10.7165358995811
10.0000000000002,-20.3083104214416,-11.709855114548,-11.7557050458507
10.1666666666669,-18.9507896212665,-10.9268245153915,-12.7484797949751
10.3333333333335,-17.5357235015374,-10.1106111052729,-13.6909421185747
10.5000000000002,-16.3082174946261,-9.4027135080873,-14.5793725484293
10.6666666666669,-15.1771420241038,-8.75052564244179,-15.4102648555169
10.8333333333335,-14.0611904807475,-8.10709716359889,-16.1803398874997
11.0000000000002,-12.8960181128342,-7.43530547120416,-16.8865585100411
11.1666666666669,-11.6227951292361,-6.70117590615788,-17.5261336008781
11.3333333333335,-10.2448970714345,-5.90665852722152,-18.0965410493209
11.5000000000002,-8.79520285653053,-5.07072539938954,-18.5955297177656
11.6666666666669,-7.3595143339387,-4.2428983554377,-19.0211303259036
11.8333333333335,-5.95193447550371,-3.43132012006339,-19.3716632225729
12.0000000000002,-4.58172190040664,-2.64133007885399,-19.645745014574
12.1666666666669,-3.24514834656951,-1.87077320932871,-19.8422940262898
12.3333333333336,-1.93530768929822,-1.11565892318521,-19.9605345685656
12.5000000000002,-0.643050782412916,-0.370701198554991,-20
12.6666666666669,0.643036629860203,0.370693010899041,-19.9605345685653
12.8333333333336,1.93529322514399,1.11565055924591,-19.8422940262893
13.0000000000002,3.24513328463182,1.8707645111471,-19.6457450145735
13.1666666666669,4.58170602153571,2.64132089683595,-19.3716632225722
13.3333333333336,5.95191759651646,3.43131036926776,-19.0211303259025
13.5000000000002,7.35949644939302,4.2428880200447,-18.5955297177642
13.6666666666669,8.79518442289199,5.07071474469836,-18.0965410493196
13.8333333333336,10.2448789053204,5.90664802786466,-17.5261336008763
14.0000000000003,11.6227781285434,6.7011660810273,-16.8865585100391
14.1666666666669,12.8960026495397,7.43529653430254,-16.1803398874979
14.3333333333336,14.0611759462467,8.10708876257499,-15.4102648555145
14.5000000000003,15.1771270389027,8.75051698135628,-14.5793725484267
14.6666666666669,16.3082002882869,9.40270356442564,-13.6909421185725
14.8333333333336,17.5357037443419,10.1105996888585,-12.7484797949723
15.0000000000003,18.9507695372352,10.9268129133826,-11.7557050458477
15.1666666666669,20.3082949027188,11.7098461493453,-10.7165358995785
15.3333333333336,21.1048238356262,12.1691000494133,-9.63507348203256
15.5000000000003,21.6650308340656,12.4920056758578,-8.51558583129943
15.6666666666669,21.2219280034227,12.2357603584562,-7.36249105369124
15.8333333333336,18.7840409609604,10.8280647378187,-6.18033988749706
16.0000000000003,15.7194805620557,9.05866108407247,-4.97379774329492
16.166666666667,12.9542934196957,7.46213828941557,-3.74762629171205
16.3333333333336,10.7287922050791,6.17723419344609,-2.50666467128412
16.5000000000003,9.67390417069503,5.56815452340538,-1.25581039058403
16.666666666667,8.50974077045084,4.89609987869564,2.49976455635776e-12
16.8333333333336,8.50973689688337,4.89609762265608,1.25581039058826
17.0000000000003,9.67389262791415,5.56814785038483,2.5066646712883
17.166666666667,10.7287688920688,6.17722071834053,3.74762629171694
17.3333333333336,12.9542595158425,7.46211869975212,4.97379774329903
17.5000000000003,15.719431668214,9.05863283851397,6.18033988750109
17.666666666667,18.7839872699856,10.8280337296315,7.36249105369588
17.8333333333336,21.2218906629168,12.2357387916675,8.51558583130325
18.0000000000003,21.6650156997731,12.4919969320031,9.63507348203627
18.166666666667,21.1048281022011,12.1691025185241,10.7165358995821
18.3333333333337,20.3083104214907,11.7098551145495,11.7557050458517
18.5000000000003,18.9507896212945,10.9268245153851,12.7484797949755
18.666666666667,17.5357235014601,10.1106111052755,13.6909421185756
18.8333333333337,16.30821749457,9.40271350808657,14.5793725484301
19.0000000000003,15.177142024153,8.75052564243919,15.4102648555172
19.166666666667,14.0611904808036,8.10709716359993,16.1803398875004
19.3333333333337,12.8960181127359,7.43530547120487,16.8865585100418
19.5000000000003,11.6227951293133,6.70117590615461,17.5261336008783
19.666666666667,10.2448970713363,5.90665852722475,18.0965410493215
19.8333333333337,8.79520285670605,5.07072539938904,18.595529717766
20.0000000000003,7.35951433391763,4.24289835543487,19.0211303259038
20.166666666667,5.95193447525091,3.43132012006085,19.3716632225732
20.3333333333337,4.58172190075773,2.64133007885624,19.6457450145743
20.5000000000004,3.24514834637296,1.87077320932565,19.8422940262899
20.666666666667,1.93530768920694,1.11565892318381,19.9605345685656
20.8333333333337,0.643050782539322,0.370701198556202,20
21.0000000000004,-0.643036629846179,-0.370693010898608,19.9605345685652
21.166666666667,-1.93529322510186,-1.11565055924812,19.8422940262892
21.3333333333337,-3.24513328482849,-1.87076451114639,19.6457450145733
21.5000000000004,-4.58170602152868,-2.64132089683601,19.3716632225719
21.666666666667,-5.95191759629876,-3.43131036926682,19.0211303259023
21.8333333333337,-7.35949644965985,-4.24288802004541,18.595529717764
22.0000000000004,-8.7951844226954,-5.07071474470201,18.0965410493191
22.166666666667,-10.2448789053275,-5.90664802786316,17.5261336008761
22.3333333333337,-11.622778128417,-6.70116608102603,16.8865585100388
22.5000000000004,-12.8960026497293,-7.43529653430773,16.1803398874972
22.666666666667,-14.0611759461344,-8.10708876256889,15.4102648555142
22.8333333333337,-15.1771270389799,-8.75051698135788,14.5793725484263
23.0000000000004,-16.3082002882799,-9.40270356443386,13.6909421185716
23.1666666666671,-17.5357037442716,-10.1105996888579,12.7484797949713
23.3333333333337,-18.9507695373124,-10.9268129133761,11.7557050458473
23.5000000000004,-20.308294902768,-11.7098461493535,10.7165358995774
23.6666666666671,-21.1048238355349,-12.1691000494139,9.63507348203146
23.8333333333337,-21.6650308340094,-12.4920056758503,8.51558583129897
24.0000000000004,-21.2219280034683,-12.2357603584552,7.36249105369078
24.1666666666671,-18.7840409610499,-10.8280647378244,6.18033988749585
24.3333333333337,-15.7194805620276,-9.05866108406578,4.97379774329443
24.5000000000004,-12.954293419679,-7.46213828941485,3.74762629171155
24.6666666666671,-10.7287922050879,-6.17723419344914,2.50666467128287
24.8333333333337,-9.67390417067726,-5.56815452340167,1.25581039058354
25.0000000000004,-8.50974077045003,-4.89609987869558,-3.01245874618554e-12
25.1666666666671,-8.50973689688089,-4.89609762265936,-1.25581039058951
25.3333333333338,-9.67389262791854,-5.56814785038538,-2.50666467128955
25.5000000000004,-10.7287688920504,-6.17722071833741,-3.74762629171743
25.6666666666671,-12.9542595158574,-7.46211869975817,-4.97379774330026
25.8333333333338,-15.7194316682298,-9.05863283851489,-6.18033988750229
26.0000000000004,-18.7839872700418,-10.8280337296276,-7.36249105369635
26.1666666666671,-21.2218906628361,-12.2357387916745,-8.51558583130439
26.3333333333338,-21.6650156997907,-12.4919969320029,-9.63507348203736
26.5000000000004,-21.104828102187,-12.169102518516,-10.7165358995825
26.6666666666671,-20.3083104215434,-11.7098551145484,-11.7557050458521
26.8333333333338,-18.9507896212735,-10.9268245153923,-12.7484797949765
27.0000000000004,-17.5357235015795,-10.1106111052704,-13.690942118576
27.1666666666671,-16.3082174943593,-9.40271350808524,-14.5793725484305
27.3333333333338,-15.1771420243005,-8.75052564244304,-15.410264855518
27.5000000000005,-14.0611904806562,-8.10709716360142,-16.1803398875012
27.6666666666671,-12.8960181126938,-7.43530547119964,-16.886558510042
27.8333333333338,-11.6227951294257,-6.70117590615511,-17.526133600879
28.0000000000005,-10.2448970714275,-5.90665852722629,-18.096541049322
28.1666666666671,-8.79520285649539,-5.07072539938498,-18.5955297177662
28.3333333333338,-7.35951433395976,-4.24289835543431,-19.0211303259042
28.5000000000005,-5.95193447537731,-3.43132012005993,-19.3716632225736
28.6666666666671,-4.58172190070157,-2.64133007885853,-19.6457450145744
28.8333333333338,-3.24514834640102,-1.87077320932216,-19.84229402629
29.0000000000005,-1.93530768941061,-1.11565892318841,-19.9605345685657
29.1666666666671,-0.643050782426953,-0.370701198553995,-20
29.3333333333338,0.643036629902343,0.370693010902168,-19.9605345685652
29.5000000000005,1.93529322525632,1.11565055924718,-19.8422940262891
29.6666666666672,3.24513328468102,1.87076451114985,-19.645745014573
29.8333333333338,4.58170602159187,2.64132089683404,-19.3716632225717
30.0000000000005,5.95191759630579,3.4313103692672,-19.0211303259019
30.1666666666672,7.35949644945622,4.24288802004855,-18.5955297177636
30.3333333333338,8.7951844229482,5.07071474469776,-18.0965410493189
30.5000000000005,10.2448789055171,5.90664802787107,-17.5261336008755
30.6666666666672,11.6227781282344,6.70116608102544,-16.8865585100382
30.8333333333338,12.8960026496661,7.43529653430254,-16.1803398874969
31.0000000000005,14.0611759459799,8.10708876257626,-15.4102648555134
31.1666666666672,15.1771270391695,8.7505169813559,-14.5793725484255
31.3333333333338,16.3082002883221,9.40270356442922,-13.6909421185712
31.5000000000005,17.5357037442927,10.1105996888574,-12.7484797949709
31.6666666666672,18.9507695372703,10.9268129133843,-11.7557050458463
31.8333333333339,20.3082949027434,11.7098461493532,-10.7165358995764
32.0000000000005,21.104823835542,12.1691000494073,-9.63507348203103
32.1666666666672,21.6650308339918,12.492005675857,-8.51558583129785
32.3333333333339,21.2219280034701,12.235760358455,-7.3624910536896
32.5000000000005,18.7840409610095,10.8280647378167,-6.18033988749538
32.6666666666672,15.7194805620241,9.05866108406985,-4.97379774329326
32.8333333333339,12.9542934196922,7.4621382894137,-3.74762629171033
33.0000000000005,10.7287922050914,6.17723419344469,-2.50666467128238
33.1666666666672,9.67390417068011,5.56815452340446,-1.2558103905823
33.333333333333,8.50974077045292,4.89609987869524,-2.53222388634153e-12
