"Time [ms]","InducedVoltage(PriCoil) [V]","InducedVoltage(SecCoil) [V]","Current(PriCoil) [mA]"
0,8.59422,4.94473,0
0.16666666666667,9.50741523344201,5.47196001579318,1.25581039058629
0.33333333333334,10.4206136377698,5.99918624482207,2.50666467128614
0.50000000000001,12.4942920193689,7.19638713203868,3.74762629171457
0.66666666666668,15.9352107927756,9.18292859326892,4.97379774329719
0.83333333333335,19.0345737766822,10.972359907832,6.18033988749907
1.00000000000002,22.8042283930414,13.1488009779632,7.3624910536937
1.16666666666669,25.8171999060454,14.8884883859515,8.51558583130161
1.33333333333336,25.541801098937,14.7299663262067,9.63507348203448
1.50000000000003,23.3168745822593,13.4461286096168,10.7165358995801
1.6666666666667,21.137085260287,12.1885381465806,11.7557050458497
1.83333333333337,19.7335613656358,11.3788826510232,12.748479794974
2.00000000000004,18.4508566625014,10.6390491820171,13.690942118574
2.16666666666671,17.2032190256401,9.91948254558009,14.5793725484285
2.33333333333338,15.941883605895,9.19200930604125,15.410264855516
2.50000000000005,14.6491302843219,8.44643531250153,16.1803398874992
2.66666666666672,13.2753191705836,7.65414232874119,16.8865585100405
2.83333333333339,11.8164982117167,6.81287021443433,17.5261336008775
3.00000000000006,10.3510553491812,5.96782046471217,18.0965410493206
3.16666666666673,8.89650865010881,5.1290939742168,18.5955297177652
3.3333333333334,7.45507317903752,4.29796500993267,19.0211303259032
3.50000000000007,6.039442316731,3.48175469994967,19.3716632225727
3.66666666666674,4.65731339595848,2.68490309722866,19.6457450145739
3.83333333333341,3.30337415835108,1.9043403783947,19.8422940262896
4.00000000000008,1.97162721977101,1.13659870576486,19.9605345685655
4.16666666666675,0.655298628699966,0.377762877280911,20
4.33333333333342,-0.655283944307473,-0.377754388830801,19.9605345685654
4.50000000000009,-1.97161225896425,-1.13659005835499,19.8422940262895
4.66666666666676,-3.30335867047252,-1.90433142607889,19.6457450145736
4.83333333333343,-4.6572971581015,-2.68489371158348,19.3716632225724
5.0000000000001,-6.03942517839995,-3.48174479369985,19.0211303259028
5.16666666666677,-7.45505507579848,-4.29795454571507,18.5955297177647
5.33333333333344,-8.89648961763355,-5.12908297397997,18.09654104932
5.50000000000011,-10.3510355584697,-5.96780902777313,17.5261336008769
5.66666666666678,-11.816478124536,-6.81285861085275,16.8865585100399
5.83333333333345,-13.275299244572,-7.65413081180826,16.1803398874984
6.00000000000012,-14.6491115128687,-8.44642446138142,15.4102648555152
6.16666666666679,-15.941864798475,-9.19199843871092,14.5793725484276
6.33333333333346,-17.2032004617012,-9.91947181656487,13.6909421185731
6.50000000000013,-18.4508358948041,-10.6390371816347,12.748479794973
6.6666666666668,-19.7335343595034,-11.3788670451388,11.7557050458486
6.83333333333347,-21.1370503071388,-12.1885179544098,10.7165358995791
7.00000000000014,-23.3168396641509,-13.4461084478339,9.63507348203339
7.16666666666681,-25.5417947176603,-14.7299626461199,8.51558583130049
7.33333333333348,-25.81724540695,-14.8885146593218,7.36249105369254
7.50000000000015,-22.8042903445276,-13.148836753263,6.18033988749788
7.66666666666682,-19.0346565741752,-10.9724077326601,4.97379774329599
7.83333333333349,-15.9352624007862,-9.18295841076942,3.74762629171333
8.00000000000016,-12.4943293339969,-7.19640869026247,2.50666467128489
8.16666666666683,-10.4206335405184,-5.99919775051804,1.25581039058506
8.3333333333335,-9.50744642873406,-5.47197807354272,-1.24988227817888e-12
8.50000000000017,-9.50743974300904,-5.47197420778275,-1.25581039058754
8.66666666666684,-10.4206144757042,-5.99918672992363,-2.50666467128737
8.83333333333351,-12.494292019311,-7.19638713205121,-3.74762629171579
9.00000000000018,-15.9352107928249,-9.18292859325768,-4.97379774329839
9.16666666666685,-19.0345737766437,-10.9723599078358,-6.18033988750026
9.33333333333351,-22.804228393224,-13.1488009779647,-7.36249105369486
9.50000000000018,-25.817199905863,-14.8884883859546,-8.51558583130273
9.66666666666685,-25.5418010992461,-14.7299663262033,-9.63507348203549
9.83333333333352,-23.3168745817819,-13.4461286096185,-10.7165358995811
10.0000000000002,-21.1370852602028,-12.1885381465764,-11.7557050458507
10.1666666666669,-19.7335613657904,-11.378882651022,-12.7484797949751
10.3333333333335,-18.4508566624875,-10.6390491820108,-13.6909421185747
10.5000000000002,-17.2032190255839,-9.91948254558964,-14.5793725484293
10.6666666666669,-15.9418836061057,-9.19200930603759,-15.4102648555169
10.8333333333335,-14.6491302837602,-8.44643531249408,-16.1803398874997
11.0000000000002,-13.2753191709488,-7.65414232874061,-16.8865585100411
11.1666666666669,-11.8164982116325,-6.81287021444313,-17.5261336008781
11.3333333333335,-10.3510553497712,-5.96782046470766,-18.0965410493209
11.5000000000002,-8.89650864977176,-5.12909397421468,-18.5955297177656
11.6666666666669,-7.45507317959924,-4.29796500993652,-19.0211303259036
11.8333333333336,-6.03944231560745,-3.48175469994707,-19.3716632225731
12.0000000000002,-4.65731339691344,-2.68490309722556,-19.645745014574
12.1666666666669,-3.30337415795788,-1.90434037840064,-19.8422940262898
12.3333333333336,-1.97162721977096,-1.13659870576951,-19.9605345685656
12.5000000000002,-0.6552986289247,-0.377762877267336,-20
12.6666666666669,0.655283944223245,0.377754388828842,-19.9605345685653
12.8333333333336,1.97161225989115,1.13659005836727,-19.8422940262893
13.0000000000002,3.30335866943325,1.90433142606927,-19.6457450145735
13.1666666666669,4.65729715852285,2.68489371157829,-19.3716632225722
13.3333333333336,6.03942517825956,3.48174479370176,-19.0211303259025
13.5000000000003,7.45505507546142,4.29795454571903,-18.5955297177642
13.6666666666669,8.89648961833583,5.12908297398791,-18.0965410493196
13.8333333333336,10.3510355581046,5.96780902776833,-17.5261336008763
14.0000000000003,11.8164781252945,6.81285861085637,-16.8865585100391
14.1666666666669,13.275299243589,7.65413081180193,-16.1803398874979
14.3333333333336,14.6491115133463,8.44642446138772,-15.4102648555145
14.5000000000003,15.9418647985454,9.19199843871698,-14.5793725484267
14.6666666666669,17.2032004616591,9.91947181655835,-13.6909421185725
14.8333333333336,18.4508358946497,10.6390371816338,-12.7484797949723
15.0000000000003,19.7335343596299,11.3788670451446,-11.7557050458477
15.1666666666669,21.137050307181,12.1885179544054,-10.7165358995785
15.3333333333336,23.3168396639404,13.4461084478341,-9.63507348203256
15.5000000000003,25.5417947176744,14.7299626461251,-8.51558583129943
15.666666666667,25.817245406915,14.888514659323,-7.36249105369124
15.8333333333336,22.804290344612,13.1488367532551,-6.18033988749706
16.0000000000003,19.0346565741297,10.9724077326613,-4.97379774329492
16.166666666667,15.9352624008319,9.18295841076815,-3.74762629171205
16.3333333333336,12.4943293339618,7.1964086902583,-2.50666467128412
16.5000000000003,10.4206335405351,5.9991977505191,-1.25581039058403
16.666666666667,9.50744642872663,5.4719780735433,2.49976455635776e-12
16.8333333333336,9.50743974301394,5.47197420778058,1.25581039058826
17.0000000000003,10.4206144756779,5.99918672992492,2.5066646712883
17.166666666667,12.4942920193725,7.19638713205438,3.74762629171694
17.3333333333336,15.9352107926458,9.18292859325616,4.97379774329903
17.5000000000003,19.034573776907,10.9723599078392,6.18033988750109
17.666666666667,22.8042283929432,13.1488009779673,7.36249105369588
17.8333333333337,25.8171999060877,14.8884883859595,8.51558583130394
18.0000000000003,25.5418010991548,14.729966326193,9.63507348203627
18.166666666667,23.316874581487,13.4461286096212,10.7165358995821
18.3333333333337,21.1370852605118,12.1885381465787,11.7557050458517
18.5000000000003,19.7335613659449,11.3788826510151,12.7484797949755
18.666666666667,18.4508566623751,10.6390491820186,13.6909421185756
18.8333333333337,17.2032190257384,9.91948254558697,14.5793725484301
19.0000000000003,15.9418836059933,9.19200930603441,15.4102648555172
19.166666666667,14.6491302844905,8.4464353124995,16.1803398875004
19.3333333333337,13.2753191702466,7.65414232873517,16.8865585100418
19.5000000000003,11.8164982109864,6.81287021443684,17.5261336008783
19.666666666667,10.3510553503049,5.96782046471264,18.0965410493215
19.8333333333337,8.89650864957516,5.12909397421731,18.595529717766
20.0000000000004,7.45507317959932,4.2979650099303,19.021130325904
20.166666666667,6.03944231571984,3.48175469994066,19.3716632225732
20.3333333333337,4.65731339660452,2.68490309723275,19.6457450145743
20.5000000000004,3.30337415823877,1.90434037840229,19.8422940262899
20.666666666667,1.97162721892836,1.13659870576024,19.9605345685656
20.8333333333337,0.655298630076286,0.377762877273793,20
21.0000000000004,-0.65528394492544,-0.377754388827015,19.9605345685652
21.166666666667,-1.97161225963835,-1.13659005836544,19.8422940262892
21.3333333333337,-3.30335866960182,-1.90433142607974,19.6457450145733
21.5000000000004,-4.65729715801726,-2.68489371158508,19.3716632225719
21.666666666667,-6.03942517831572,-3.481744793692,19.0211303259023
21.8333333333337,-7.45505507574232,-4.29795454571778,18.595529717764
22.0000000000004,-8.89648961819536,-5.12908297398845,18.0965410493191
22.166666666667,-10.3510355579923,-5.96780902776895,17.5261336008761
22.3333333333337,-11.8164781250979,-6.81285861086272,16.8865585100388
22.5000000000004,-13.2752992438418,-7.65413081180408,16.1803398874972
22.6666666666671,-14.6491115128969,-8.44642446138357,15.4102648555137
22.8333333333337,-15.9418647988824,-9.19199843871155,14.5793725484263
23.0000000000004,-17.2032004615468,-9.91947181656772,13.6909421185716
23.1666666666671,-18.4508358951271,-10.6390371816318,12.7484797949713
23.3333333333337,-19.7335343593069,-11.3788670451353,11.7557050458473
23.5000000000004,-21.137050306844,-12.1885179544142,10.7165358995774
23.6666666666671,-23.3168396646005,-13.4461084478387,9.63507348203146
23.8333333333337,-25.5417947174217,-14.7299626461167,8.51558583129897
24.0000000000004,-25.8172454068307,-14.8885146593216,7.36249105369078
24.1666666666671,-22.804290344633,-13.1488367532623,6.18033988749585
24.3333333333337,-19.0346565741823,-10.9724077326548,4.97379774329443
24.5000000000004,-15.9352624008003,-9.18295841076771,3.74762629171155
24.6666666666671,-12.4943293339689,-7.19640869026113,2.50666467128287
24.8333333333338,-10.420633540536,-5.99919775051866,1.25581039058276
25.0000000000004,-9.50744642870844,-5.47197807353949,-3.01245874618554e-12
25.1666666666671,-9.50743974301897,-5.47197420778412,-1.25581039058951
25.3333333333338,-10.4206144757165,-5.99918672992593,-2.50666467128955
25.5000000000004,-12.4942920193321,-7.19638713205078,-3.74762629171743
25.6666666666671,-15.9352107926985,-9.1829285932631,-4.97379774330026
25.8333333333338,-19.0345737769035,-10.9723599078406,-6.18033988750229
26.0000000000004,-22.8042283929993,-13.1488009779612,-7.36249105369635
26.1666666666671,-25.8171999060175,-14.888488385959,-8.51558583130439
26.3333333333338,-25.5418010993374,-14.7299663262039,-9.63507348203736
26.5000000000004,-23.3168745814449,-13.4461286096126,-10.7165358995825
26.6666666666671,-21.1370852606522,-12.1885381465773,-11.7557050458521
26.8333333333338,-19.7335613655798,-11.3788826510252,-12.7484797949765
27.0000000000005,-18.4508566626841,-10.6390491820095,-13.6909421185765
27.1666666666671,-17.2032190253312,-9.9194825455861,-14.5793725484305
27.3333333333338,-15.9418836061899,-9.19200930603576,-15.410264855518
27.5000000000005,-14.6491302842939,-8.44643531249974,-16.1803398875012
27.6666666666671,-13.2753191703027,-7.65414232873367,-16.886558510042
27.8333333333338,-11.8164982121381,-6.81287021443724,-17.526133600879
28.0000000000005,-10.3510553496869,-5.9678204647045,-18.096541049322
28.1666666666671,-8.89650864932237,-5.12909397422164,-18.5955297177662
28.3333333333338,-7.45507317881286,-4.29796500993371,-19.0211303259042
28.5000000000005,-6.0394423168153,-3.48175469994197,-19.3716632225736
28.6666666666671,-4.65731339576191,-2.68490309722713,-19.6457450145744
28.8333333333338,-3.30337415888476,-1.90434037840262,-19.84229402629
29.0000000000005,-1.97162721864751,-1.13659870575612,-19.9605345685657
29.1666666666672,-0.655298629823488,-0.37776287728058,-20
29.3333333333338,0.655283944532213,0.3777543888348,-19.9605345685652
29.5000000000005,1.97161225924512,1.13659005836948,-19.8422940262891
29.6666666666672,3.30335867038827,1.90433142607391,-19.645745014573
29.8333333333338,4.65729715782067,2.68489371157775,-19.3716632225717
30.0000000000005,6.03942517834378,3.48174479370445,-19.0211303259019
30.1666666666672,7.45505507548952,4.29795454572136,-18.5955297177636
30.3333333333338,8.8964896181392,5.12908297398358,-18.0965410493189
30.5000000000005,10.3510355584979,5.96780902776868,-17.5261336008755
30.6666666666672,11.8164781249012,6.81285861085096,-16.8865585100382
30.8333333333338,13.2752992439541,7.65413081180836,-16.1803398874969
31.0000000000005,14.6491115131216,8.44642446138892,-15.4102648555134
31.1666666666672,15.9418647983487,9.19199843871958,-14.5793725484255
31.3333333333339,17.2032004614204,9.91947181656449,-13.6909421185707
31.5000000000005,18.4508358953097,10.6390371816283,-12.7484797949709
31.6666666666672,19.7335343593631,11.3788670451458,-11.7557050458463
31.8333333333339,21.1370503069844,12.1885179544176,-10.7165358995764
32.0000000000005,23.3168396643758,13.446108447828,-9.63507348203103
32.1666666666672,25.5417947173303,14.7299626461242,-8.51558583129785
32.3333333333339,25.8172454070835,14.8885146593223,-7.3624910536896
32.5000000000005,22.8042903447384,13.1488367532522,-6.18033988749538
32.6666666666672,19.0346565740384,10.9724077326598,-4.97379774329326
32.8333333333339,15.9352624007792,9.18295841076639,-3.74762629171033
33.0000000000005,12.4943293339759,7.19640869025506,-2.50666467128238
33.1666666666672,10.4206335405246,5.99919775051764,-1.2558103905823
33.333333333333,9.50744642873307,5.47197807354327,-2.53222388634153e-12
